#TimeHarp 260  Histogram Data			06.08.2020 16:15:20
#channels per curve
32768
#display curve no.
0	1	
#memory block no.
0	1	
#ns/bin
0,0250	0,0250	
#counts
57	64	
58	78	
45	49	
66	58	
56	57	
54	63	
53	70	
53	61	
61	70	
62	51	
68	64	
65	55	
58	51	
68	65	
57	50	
62	54	
60	50	
61	59	
48	45	
48	50	
58	54	
47	46	
76	42	
56	58	
52	63	
54	63	
53	52	
65	39	
63	55	
62	65	
55	53	
56	69	
58	48	
61	52	
61	72	
57	58	
70	54	
62	59	
48	71	
65	55	
62	59	
61	50	
69	50	
50	49	
57	51	
61	60	
58	55	
67	67	
48	61	
45	64	
52	63	
55	43	
61	50	
61	64	
48	58	
47	57	
54	43	
61	69	
65	57	
52	44	
51	48	
71	50	
56	67	
70	61	
51	48	
48	57	
48	47	
52	63	
51	51	
67	63	
58	51	
63	57	
59	52	
67	52	
62	57	
77	46	
51	44	
54	64	
78	56	
51	57	
65	66	
45	54	
49	51	
56	50	
60	72	
56	59	
51	60	
53	48	
53	50	
52	53	
57	60	
61	53	
56	68	
58	55	
47	59	
58	59	
56	56	
64	49	
50	52	
61	51	
64	47	
56	51	
57	64	
51	55	
71	60	
61	46	
56	61	
65	47	
62	55	
51	60	
57	72	
65	60	
55	68	
62	56	
61	55	
59	46	
61	66	
52	53	
43	56	
64	59	
47	61	
43	54	
59	45	
71	64	
60	58	
60	62	
52	57	
62	46	
49	51	
52	71	
52	43	
62	57	
62	64	
54	62	
77	52	
57	52	
64	61	
53	49	
47	70	
60	51	
54	57	
56	54	
53	48	
52	49	
51	48	
49	53	
50	63	
62	60	
43	60	
63	52	
54	66	
57	45	
59	67	
63	51	
61	51	
56	54	
69	68	
57	63	
51	58	
43	54	
50	47	
62	68	
50	55	
63	65	
55	58	
66	47	
66	59	
50	61	
58	62	
63	57	
49	56	
55	73	
42	45	
52	64	
58	57	
64	58	
54	55	
65	64	
62	64	
48	55	
61	55	
60	59	
76	57	
66	53	
65	68	
59	51	
54	48	
51	50	
61	54	
63	59	
58	53	
79	50	
46	56	
65	53	
48	58	
54	70	
58	57	
70	61	
73	53	
73	48	
61	53	
49	55	
60	50	
48	53	
55	57	
73	54	
40	57	
66	54	
57	73	
60	54	
49	60	
56	50	
61	55	
54	58	
68	51	
63	61	
56	50	
44	66	
53	45	
53	55	
56	60	
62	58	
56	41	
74	56	
58	40	
47	65	
47	52	
49	50	
42	56	
60	34	
62	46	
70	54	
62	45	
58	64	
41	55	
63	64	
47	56	
52	58	
43	49	
53	63	
60	54	
57	62	
67	44	
61	56	
59	52	
52	56	
54	45	
40	51	
63	58	
51	70	
51	53	
56	52	
40	62	
63	54	
43	65	
49	63	
60	53	
62	53	
62	47	
63	63	
43	63	
66	59	
52	46	
50	67	
45	49	
71	56	
65	57	
53	39	
41	64	
57	67	
45	63	
55	70	
75	54	
48	46	
52	57	
49	46	
48	49	
54	45	
57	55	
52	49	
84	54	
60	46	
47	67	
58	59	
60	57	
52	54	
46	59	
72	52	
75	59	
65	46	
50	49	
63	59	
64	54	
65	68	
53	62	
67	57	
60	59	
58	61	
50	51	
69	63	
50	49	
57	55	
49	59	
71	67	
76	49	
59	47	
63	61	
53	56	
61	59	
62	41	
49	59	
56	64	
57	64	
47	49	
57	46	
59	55	
48	64	
58	69	
69	71	
46	67	
55	46	
65	57	
47	49	
62	54	
64	58	
62	61	
56	47	
51	55	
54	70	
76	56	
53	49	
60	52	
59	55	
58	58	
62	54	
68	60	
57	46	
65	55	
71	55	
57	56	
64	51	
60	53	
60	62	
54	49	
54	64	
64	62	
53	67	
38	64	
66	63	
59	55	
51	53	
63	59	
61	54	
73	60	
62	59	
66	61	
56	42	
54	61	
66	52	
56	47	
61	65	
45	59	
63	48	
67	55	
63	52	
69	53	
48	47	
61	58	
47	54	
66	48	
50	61	
55	65	
47	58	
44	54	
65	50	
61	50	
53	60	
61	54	
54	68	
59	58	
55	53	
63	53	
58	63	
44	46	
78	57	
61	65	
72	59	
55	64	
55	50	
52	51	
55	53	
45	49	
59	57	
71	49	
57	50	
59	51	
63	60	
61	55	
47	52	
66	66	
54	43	
65	60	
65	61	
54	65	
53	48	
63	50	
45	73	
59	54	
62	54	
46	64	
62	50	
61	77	
50	66	
56	47	
58	58	
51	52	
64	50	
55	46	
45	63	
61	62	
50	62	
53	54	
46	61	
62	47	
58	63	
48	57	
43	71	
56	62	
51	54	
57	39	
63	55	
64	56	
63	49	
43	39	
67	51	
61	67	
65	53	
66	76	
46	62	
69	65	
44	44	
52	46	
61	59	
53	65	
58	50	
63	55	
53	59	
63	49	
56	51	
74	63	
60	56	
49	63	
48	55	
48	71	
53	56	
57	40	
45	65	
64	50	
56	60	
55	59	
54	55	
49	59	
68	57	
48	53	
64	52	
60	56	
71	59	
68	53	
53	49	
54	48	
57	58	
49	49	
52	42	
55	68	
59	57	
68	55	
63	53	
59	67	
57	61	
66	53	
56	65	
53	57	
72	49	
69	59	
62	50	
66	60	
52	46	
71	63	
44	52	
68	74	
48	58	
67	53	
48	48	
78	51	
60	70	
65	54	
50	55	
66	56	
63	59	
49	37	
62	45	
61	44	
53	57	
52	57	
78	58	
62	56	
55	47	
68	56	
69	61	
76	44	
55	58	
58	58	
50	63	
62	65	
68	64	
79	47	
59	44	
64	48	
59	49	
51	57	
64	61	
63	55	
54	59	
60	49	
55	55	
64	57	
60	63	
62	52	
78	63	
56	42	
52	55	
50	57	
51	48	
64	44	
66	41	
58	58	
46	46	
52	46	
69	49	
57	57	
65	50	
71	61	
70	47	
60	66	
71	58	
55	60	
53	67	
66	45	
60	51	
60	49	
55	64	
74	55	
67	53	
55	59	
61	51	
57	68	
65	44	
65	45	
56	53	
62	61	
50	39	
51	50	
67	48	
59	46	
69	57	
67	50	
54	57	
50	50	
65	48	
46	59	
59	52	
63	50	
46	52	
48	54	
70	56	
57	48	
67	59	
61	45	
63	51	
58	56	
52	54	
65	54	
56	59	
58	70	
65	59	
48	43	
54	72	
55	60	
56	56	
62	49	
60	51	
54	54	
59	62	
54	61	
66	49	
65	46	
66	62	
59	56	
63	58	
57	66	
62	63	
58	52	
60	56	
66	44	
55	59	
57	64	
48	53	
59	75	
53	68	
56	63	
73	56	
52	56	
53	50	
56	55	
65	36	
50	59	
52	59	
55	66	
56	55	
49	46	
67	61	
51	53	
50	57	
47	49	
74	70	
51	64	
48	49	
48	76	
57	53	
59	54	
46	64	
45	48	
68	51	
67	48	
54	53	
55	44	
54	58	
59	58	
60	55	
47	41	
56	63	
54	51	
82	56	
57	52	
62	57	
68	51	
68	53	
56	56	
67	53	
46	60	
60	66	
67	56	
56	50	
69	57	
53	64	
65	47	
81	56	
59	64	
59	55	
62	43	
70	54	
58	55	
54	44	
59	47	
58	49	
63	53	
71	50	
64	61	
74	52	
64	57	
67	71	
67	62	
58	55	
74	52	
53	57	
57	64	
63	62	
66	67	
59	65	
67	68	
55	54	
65	47	
63	73	
45	57	
61	56	
59	56	
55	60	
65	60	
71	61	
68	57	
47	52	
61	59	
50	64	
56	68	
61	57	
58	58	
59	53	
54	61	
61	52	
59	56	
57	48	
64	49	
54	67	
64	50	
47	45	
58	60	
61	47	
50	65	
58	51	
81	53	
68	41	
53	50	
60	52	
76	64	
54	45	
45	60	
54	50	
63	67	
58	63	
69	68	
75	51	
60	58	
60	64	
69	66	
61	45	
57	55	
52	66	
66	56	
71	53	
43	53	
58	51	
68	51	
70	39	
57	63	
49	53	
56	62	
60	55	
64	52	
59	59	
52	61	
46	63	
57	72	
59	64	
71	54	
65	51	
54	42	
58	58	
67	61	
60	50	
50	58	
52	58	
48	55	
68	68	
48	64	
48	45	
63	57	
66	55	
64	45	
71	53	
61	64	
55	67	
64	51	
58	56	
67	62	
59	57	
66	59	
56	60	
61	49	
71	57	
61	54	
56	48	
42	57	
56	62	
65	51	
62	41	
54	45	
67	51	
56	62	
50	60	
52	41	
56	45	
50	66	
67	69	
45	51	
56	59	
50	52	
50	46	
54	57	
60	49	
60	48	
48	47	
53	61	
59	65	
59	55	
44	64	
56	50	
75	64	
60	58	
63	59	
69	48	
63	53	
61	57	
61	60	
65	71	
62	56	
65	56	
75	58	
71	50	
67	38	
49	54	
60	58	
56	56	
64	59	
55	69	
68	51	
58	55	
54	60	
63	56	
72	53	
69	56	
61	49	
62	65	
63	63	
66	48	
63	63	
61	55	
54	48	
53	62	
72	57	
59	67	
52	71	
69	56	
76	57	
58	49	
49	47	
47	57	
60	50	
57	48	
55	60	
77	43	
62	62	
51	55	
60	60	
61	69	
75	47	
73	62	
51	46	
52	68	
62	59	
44	66	
50	54	
64	40	
55	57	
53	50	
52	46	
65	62	
60	72	
67	45	
53	61	
57	51	
50	67	
48	61	
61	53	
79	57	
67	55	
55	63	
63	50	
43	68	
56	68	
61	43	
58	52	
59	51	
61	56	
56	63	
69	55	
74	54	
54	55	
64	53	
63	61	
56	61	
38	50	
65	55	
67	60	
70	58	
53	48	
74	60	
72	56	
54	55	
63	65	
66	40	
60	59	
67	48	
57	61	
63	69	
64	53	
56	50	
65	68	
71	59	
79	57	
56	56	
64	58	
57	53	
59	64	
49	50	
57	54	
46	65	
61	55	
61	64	
46	56	
57	61	
71	61	
64	55	
66	60	
66	67	
77	56	
68	61	
56	54	
60	54	
60	61	
64	45	
54	53	
63	59	
67	46	
54	50	
55	54	
64	58	
70	41	
71	55	
69	59	
72	69	
59	49	
69	67	
52	64	
65	51	
56	38	
61	48	
53	54	
57	54	
61	47	
52	46	
58	55	
54	57	
71	57	
37	61	
48	57	
54	61	
41	37	
64	40	
67	60	
58	59	
49	57	
60	54	
69	50	
59	50	
59	53	
65	46	
63	50	
39	63	
74	57	
60	59	
55	59	
54	52	
77	54	
50	62	
64	64	
73	57	
65	56	
73	66	
79	64	
63	55	
55	66	
56	48	
57	49	
57	68	
56	62	
58	51	
49	46	
62	64	
56	57	
54	64	
51	51	
72	47	
63	66	
67	44	
77	59	
69	52	
61	61	
54	58	
53	54	
52	63	
65	66	
55	64	
66	64	
55	61	
51	53	
62	54	
72	57	
55	54	
62	52	
44	54	
78	51	
55	67	
58	47	
61	66	
61	62	
60	59	
68	33	
50	67	
69	51	
56	51	
58	61	
68	48	
62	59	
65	51	
57	64	
51	60	
59	48	
59	67	
54	51	
66	69	
63	67	
64	71	
55	52	
47	59	
55	67	
52	65	
65	52	
58	48	
54	43	
67	57	
45	60	
56	68	
61	60	
61	58	
50	69	
51	47	
52	55	
55	60	
46	50	
74	60	
62	62	
77	54	
64	58	
54	62	
78	53	
60	58	
62	59	
56	63	
68	46	
75	59	
59	53	
65	64	
68	58	
55	57	
58	49	
66	54	
58	49	
59	55	
69	65	
63	61	
59	55	
66	62	
55	56	
62	50	
52	59	
61	51	
50	79	
60	72	
66	52	
60	51	
54	46	
60	69	
68	66	
55	44	
60	45	
52	49	
62	49	
55	55	
63	50	
58	48	
58	68	
52	68	
65	46	
55	60	
58	64	
66	45	
55	57	
55	44	
68	54	
73	58	
63	50	
59	65	
61	60	
69	57	
72	60	
61	57	
57	55	
75	65	
60	67	
59	55	
71	60	
52	65	
57	49	
58	57	
61	68	
61	60	
76	59	
51	55	
54	38	
59	62	
57	48	
48	65	
54	59	
48	60	
47	56	
55	50	
62	68	
57	65	
55	45	
55	56	
57	57	
58	49	
59	56	
53	74	
61	48	
56	54	
80	49	
68	62	
53	65	
60	52	
62	60	
51	56	
61	68	
50	47	
60	55	
81	53	
63	73	
63	46	
71	58	
74	55	
64	60	
51	60	
62	63	
76	55	
49	65	
74	59	
70	48	
60	61	
61	65	
69	54	
53	70	
58	71	
69	54	
52	65	
61	40	
58	54	
69	55	
58	53	
46	65	
54	40	
67	57	
48	55	
64	53	
68	50	
56	59	
63	43	
68	55	
53	59	
51	64	
82	50	
54	49	
65	45	
54	55	
70	53	
41	56	
54	68	
58	67	
55	54	
50	57	
70	62	
55	57	
46	54	
62	62	
63	52	
49	57	
56	55	
67	58	
61	45	
75	50	
69	69	
75	62	
73	70	
62	53	
60	56	
66	49	
61	52	
54	51	
82	48	
55	58	
69	57	
66	60	
45	57	
55	50	
67	70	
53	56	
58	41	
51	65	
65	50	
48	65	
67	71	
66	54	
64	66	
61	57	
59	52	
56	64	
70	44	
63	57	
67	77	
63	56	
58	54	
54	57	
63	58	
62	60	
73	63	
62	49	
85	52	
54	59	
59	46	
58	49	
49	41	
54	66	
54	56	
68	57	
57	58	
60	50	
56	68	
66	67	
56	68	
61	58	
66	56	
49	50	
56	56	
59	61	
69	47	
62	58	
75	48	
56	59	
62	38	
70	48	
76	57	
50	49	
58	48	
59	51	
59	58	
64	53	
55	48	
57	68	
57	55	
58	47	
70	56	
77	51	
57	49	
67	63	
62	49	
60	46	
55	63	
68	66	
69	36	
57	62	
60	46	
55	49	
61	57	
60	61	
73	52	
58	60	
61	64	
56	57	
56	56	
73	57	
60	52	
47	49	
57	61	
70	44	
71	49	
52	63	
72	50	
67	49	
69	50	
71	53	
61	64	
60	50	
57	62	
66	54	
64	43	
62	47	
67	52	
50	52	
61	57	
71	58	
76	64	
61	59	
81	56	
53	73	
65	52	
70	56	
53	49	
68	45	
47	52	
73	48	
58	49	
52	48	
58	46	
68	71	
79	65	
68	51	
65	57	
68	49	
79	62	
54	48	
57	46	
66	56	
52	49	
66	58	
59	64	
53	55	
67	63	
62	46	
57	53	
69	48	
57	63	
71	58	
53	57	
48	53	
57	65	
55	56	
58	67	
66	66	
51	50	
69	53	
59	53	
52	64	
64	55	
60	62	
59	64	
64	48	
62	66	
65	50	
52	59	
75	65	
67	66	
54	53	
55	68	
52	54	
73	58	
69	67	
61	57	
65	44	
60	57	
70	55	
68	61	
62	45	
75	62	
74	58	
59	56	
80	68	
58	59	
57	52	
61	47	
73	61	
75	46	
49	51	
60	59	
63	52	
52	40	
68	41	
57	49	
68	59	
67	52	
64	49	
77	52	
54	49	
56	53	
59	52	
67	64	
54	63	
66	45	
61	55	
66	60	
60	55	
64	51	
56	49	
72	59	
50	51	
70	57	
62	54	
60	47	
75	61	
47	44	
59	59	
61	63	
57	60	
61	53	
61	47	
65	60	
63	57	
71	39	
58	50	
52	59	
63	60	
59	53	
49	44	
55	50	
61	54	
66	53	
69	65	
52	62	
63	59	
72	44	
73	51	
65	58	
57	52	
75	49	
55	62	
75	46	
57	68	
50	52	
71	65	
56	56	
69	44	
57	46	
57	74	
68	59	
52	53	
56	53	
64	63	
59	62	
61	51	
70	49	
63	49	
61	54	
79	44	
56	46	
56	57	
57	61	
51	55	
45	54	
63	40	
57	56	
60	57	
46	49	
57	42	
63	55	
64	44	
64	63	
65	45	
61	51	
57	52	
58	53	
59	59	
57	52	
66	58	
40	58	
51	43	
64	53	
57	54	
65	43	
57	63	
57	70	
79	38	
74	57	
65	56	
63	63	
62	55	
52	56	
60	58	
53	64	
52	46	
69	58	
62	54	
59	62	
65	52	
65	52	
49	53	
70	52	
81	54	
61	52	
59	43	
70	60	
62	56	
53	50	
68	41	
65	60	
59	54	
65	47	
59	62	
63	51	
54	49	
51	52	
68	58	
45	66	
55	63	
51	64	
68	47	
64	52	
77	60	
58	52	
70	49	
74	59	
62	55	
74	48	
63	59	
70	59	
63	48	
44	44	
71	48	
68	58	
51	56	
57	41	
53	50	
65	57	
55	54	
69	68	
51	44	
72	49	
58	50	
77	59	
70	57	
60	70	
59	56	
59	63	
67	57	
54	49	
69	62	
44	55	
61	50	
64	63	
53	55	
66	60	
70	60	
63	67	
59	54	
68	67	
56	58	
68	48	
53	56	
65	58	
49	56	
59	45	
61	55	
48	54	
52	56	
74	63	
65	55	
64	58	
62	53	
58	57	
64	42	
60	50	
54	65	
61	64	
77	60	
56	44	
54	58	
64	54	
64	60	
76	41	
48	59	
56	50	
78	59	
62	56	
57	54	
58	52	
57	50	
57	57	
76	47	
49	53	
60	46	
60	70	
63	53	
71	53	
73	64	
49	63	
53	44	
75	60	
48	56	
63	61	
75	72	
69	66	
57	61	
60	60	
57	71	
75	55	
67	50	
67	48	
73	64	
45	48	
67	57	
66	58	
79	55	
70	64	
64	52	
52	46	
69	52	
68	73	
65	44	
54	61	
56	72	
57	66	
57	59	
64	56	
58	53	
65	48	
70	57	
62	57	
59	49	
68	46	
57	59	
64	59	
60	63	
71	46	
70	52	
66	45	
59	55	
63	53	
59	68	
61	54	
46	72	
61	49	
66	61	
75	54	
57	61	
68	62	
59	58	
71	58	
61	54	
67	55	
60	72	
71	63	
66	59	
56	53	
61	59	
48	65	
66	57	
74	48	
67	58	
52	62	
55	58	
50	53	
58	50	
63	60	
54	53	
66	52	
57	57	
66	41	
67	61	
67	54	
51	59	
58	50	
60	55	
52	52	
70	62	
62	53	
66	59	
65	51	
55	46	
70	61	
64	47	
70	60	
59	53	
56	64	
67	57	
56	53	
61	55	
59	50	
53	66	
57	57	
63	49	
68	56	
72	42	
63	56	
65	51	
66	66	
62	50	
78	48	
51	51	
57	42	
65	43	
69	54	
60	54	
58	53	
50	50	
68	48	
71	56	
54	60	
69	61	
67	48	
51	61	
64	58	
72	65	
53	52	
79	49	
76	50	
63	46	
66	62	
70	56	
70	63	
60	65	
65	49	
77	53	
74	50	
64	49	
68	65	
63	48	
64	63	
78	56	
67	58	
58	58	
62	56	
63	56	
67	66	
69	69	
55	59	
69	48	
60	46	
70	54	
56	50	
54	47	
71	63	
55	54	
70	66	
58	54	
58	55	
70	63	
64	59	
65	40	
66	33	
57	52	
77	51	
61	64	
61	46	
72	43	
62	53	
69	58	
67	78	
59	61	
63	59	
67	58	
53	54	
54	46	
56	55	
73	76	
59	68	
65	55	
67	52	
48	54	
79	54	
74	59	
63	68	
58	54	
67	53	
62	74	
68	58	
66	60	
68	63	
47	51	
70	49	
53	48	
55	62	
60	59	
57	45	
59	55	
53	49	
76	68	
59	46	
60	46	
62	57	
68	41	
64	49	
52	66	
65	50	
56	54	
74	57	
64	55	
61	49	
55	59	
73	49	
58	51	
49	57	
67	55	
74	50	
60	50	
60	39	
61	48	
56	61	
53	45	
59	48	
75	37	
62	45	
67	51	
67	48	
84	58	
56	49	
67	61	
71	46	
54	48	
59	46	
57	55	
62	60	
64	67	
58	48	
64	54	
57	61	
53	47	
60	46	
73	68	
64	60	
68	48	
54	48	
70	65	
64	56	
53	54	
62	62	
77	61	
66	55	
66	62	
69	82	
56	54	
70	53	
59	66	
63	65	
67	56	
72	49	
78	62	
48	54	
62	46	
68	63	
58	55	
69	57	
65	64	
68	66	
71	57	
46	70	
71	67	
56	64	
71	58	
64	66	
63	53	
54	77	
64	66	
54	45	
70	56	
61	62	
60	65	
67	53	
57	55	
57	45	
65	49	
71	57	
72	54	
62	57	
60	72	
74	71	
58	71	
75	57	
55	52	
65	65	
66	72	
88	58	
68	56	
58	53	
62	64	
79	62	
74	58	
55	44	
62	56	
70	45	
76	66	
60	48	
73	45	
69	57	
77	65	
72	57	
55	54	
72	72	
66	64	
77	45	
59	60	
74	54	
65	65	
68	54	
70	51	
74	60	
70	52	
61	51	
78	52	
84	62	
56	68	
55	58	
66	65	
74	55	
73	65	
55	64	
54	55	
64	58	
51	74	
74	57	
71	62	
81	51	
65	54	
57	66	
71	65	
69	48	
58	56	
66	56	
75	58	
48	58	
65	46	
78	53	
59	61	
47	59	
81	43	
66	60	
66	55	
61	69	
87	67	
71	65	
72	70	
70	66	
65	65	
69	63	
49	74	
73	61	
64	69	
57	41	
63	72	
80	44	
66	55	
54	58	
65	46	
84	55	
68	58	
60	56	
75	53	
78	48	
68	58	
72	54	
70	56	
58	49	
53	40	
56	68	
77	56	
54	55	
69	52	
63	65	
71	61	
63	56	
65	61	
65	68	
67	55	
71	67	
69	57	
80	56	
73	49	
62	70	
74	54	
62	54	
76	53	
71	62	
64	69	
69	70	
75	67	
78	64	
73	59	
62	68	
65	63	
63	52	
69	53	
75	59	
83	58	
68	68	
67	76	
73	61	
65	56	
80	63	
81	56	
69	53	
59	69	
69	63	
65	65	
65	61	
54	78	
81	74	
64	63	
74	47	
73	58	
55	66	
84	72	
76	53	
57	51	
71	62	
68	65	
51	57	
66	57	
60	48	
70	59	
80	63	
62	50	
80	68	
71	56	
72	54	
62	72	
56	59	
54	50	
75	77	
59	66	
68	68	
77	71	
78	63	
65	62	
75	60	
75	57	
77	61	
68	59	
78	68	
73	69	
68	62	
61	63	
77	63	
74	68	
73	58	
80	70	
72	52	
81	53	
59	65	
64	53	
84	63	
69	55	
70	68	
81	67	
71	81	
74	66	
72	51	
68	61	
79	60	
71	59	
71	52	
64	72	
72	73	
83	82	
78	72	
83	50	
66	83	
79	55	
71	72	
81	63	
67	62	
61	54	
68	69	
56	65	
64	67	
72	75	
73	63	
79	64	
75	46	
82	81	
67	61	
49	73	
67	75	
67	58	
79	57	
76	62	
85	70	
75	73	
66	69	
77	73	
84	66	
61	63	
68	77	
76	67	
72	71	
90	76	
72	74	
76	67	
82	75	
70	64	
60	74	
85	79	
77	68	
71	67	
79	68	
72	67	
79	67	
79	67	
67	63	
82	87	
81	65	
83	74	
82	76	
88	70	
76	78	
83	73	
81	56	
75	77	
72	52	
79	65	
85	73	
79	78	
97	69	
67	65	
64	78	
84	55	
63	71	
60	64	
81	70	
81	81	
76	88	
60	72	
84	83	
86	83	
62	55	
90	70	
57	72	
87	70	
84	75	
79	58	
69	65	
73	81	
89	79	
71	97	
80	79	
84	81	
82	78	
80	90	
74	81	
57	90	
76	78	
75	82	
91	93	
77	78	
90	74	
93	68	
72	92	
79	90	
83	96	
71	81	
80	70	
78	87	
89	72	
73	84	
87	92	
81	69	
84	84	
83	74	
92	85	
69	83	
81	73	
73	88	
72	88	
78	72	
73	90	
76	67	
75	76	
85	78	
86	73	
74	87	
72	62	
70	88	
87	65	
72	72	
91	75	
67	60	
78	74	
60	79	
70	72	
89	69	
81	71	
73	67	
70	73	
63	90	
71	68	
87	76	
67	52	
71	62	
65	69	
75	63	
65	71	
69	50	
88	58	
79	62	
65	59	
66	46	
73	67	
73	64	
71	48	
59	62	
65	73	
70	61	
76	62	
75	58	
76	61	
54	53	
78	58	
64	60	
72	63	
78	61	
67	61	
58	56	
77	61	
69	62	
73	53	
73	55	
79	51	
68	66	
61	52	
57	41	
66	57	
67	53	
67	62	
73	64	
60	60	
66	64	
81	62	
74	66	
55	53	
80	58	
67	53	
87	63	
63	54	
52	56	
72	77	
65	50	
61	53	
67	67	
65	55	
55	70	
65	47	
81	54	
71	63	
54	56	
64	58	
66	56	
81	50	
68	60	
80	56	
49	66	
46	37	
78	47	
64	53	
64	51	
67	49	
76	51	
59	44	
60	47	
66	44	
52	44	
58	59	
85	55	
67	53	
60	48	
59	44	
67	47	
59	49	
54	54	
74	62	
74	56	
71	51	
66	55	
59	57	
67	72	
64	54	
53	50	
69	57	
68	51	
67	60	
78	49	
73	58	
55	58	
70	48	
54	49	
69	60	
68	52	
79	50	
73	63	
77	51	
66	48	
61	69	
75	77	
67	53	
80	50	
70	53	
75	54	
78	60	
78	61	
69	46	
89	57	
76	57	
70	60	
67	61	
59	69	
78	40	
70	67	
61	53	
73	49	
63	65	
76	60	
66	45	
62	45	
62	59	
81	59	
71	53	
81	57	
54	46	
74	51	
72	61	
66	63	
72	50	
66	61	
56	51	
70	68	
72	54	
54	42	
65	55	
66	65	
67	37	
69	57	
63	43	
74	53	
72	41	
72	50	
69	47	
63	62	
73	55	
60	46	
68	53	
68	68	
58	47	
72	57	
61	63	
61	69	
77	52	
73	44	
72	65	
74	41	
65	51	
75	56	
69	43	
82	63	
75	54	
71	32	
73	74	
63	57	
75	55	
65	62	
72	55	
71	56	
49	49	
83	56	
59	58	
62	59	
63	52	
57	54	
59	55	
47	56	
71	59	
68	54	
81	50	
65	57	
67	62	
75	70	
64	59	
67	59	
67	53	
87	61	
63	50	
61	59	
72	49	
72	55	
71	44	
80	56	
67	51	
63	53	
62	77	
66	59	
73	64	
66	58	
75	53	
57	54	
74	51	
58	48	
65	60	
70	51	
61	56	
77	53	
57	49	
57	47	
63	50	
69	54	
62	55	
76	62	
63	43	
68	61	
64	50	
68	56	
79	51	
75	54	
68	54	
70	62	
67	72	
65	60	
78	59	
66	45	
61	60	
61	52	
50	55	
70	50	
64	58	
65	60	
69	60	
73	53	
68	59	
75	54	
70	48	
70	54	
72	50	
79	62	
67	52	
70	60	
61	55	
75	64	
72	57	
54	54	
60	44	
66	58	
73	43	
57	64	
75	63	
73	54	
82	58	
76	63	
84	83	
76	49	
54	50	
86	56	
64	58	
82	56	
76	58	
79	46	
71	56	
80	67	
66	48	
70	48	
72	57	
69	54	
68	59	
75	55	
63	49	
69	61	
67	55	
67	75	
75	60	
65	49	
61	55	
68	49	
58	48	
60	39	
66	55	
71	58	
60	59	
61	54	
58	56	
54	72	
70	58	
58	59	
73	49	
57	62	
69	67	
72	51	
61	40	
68	43	
55	56	
66	45	
65	52	
60	48	
72	63	
71	53	
74	65	
59	47	
70	64	
56	41	
78	40	
78	55	
57	55	
50	50	
75	55	
50	61	
57	51	
80	61	
72	60	
76	71	
81	59	
61	56	
72	58	
75	54	
74	73	
68	39	
71	70	
74	60	
66	44	
70	58	
68	63	
82	61	
75	67	
68	66	
86	61	
80	58	
80	63	
65	55	
75	49	
80	49	
67	64	
75	64	
90	53	
71	59	
81	48	
55	42	
88	67	
65	49	
57	51	
63	52	
74	58	
57	50	
53	54	
64	56	
56	44	
64	56	
64	57	
56	52	
57	53	
59	59	
57	67	
66	72	
73	60	
60	41	
62	48	
71	51	
63	45	
64	43	
65	51	
85	51	
59	48	
81	56	
58	60	
67	39	
68	40	
65	47	
74	46	
64	57	
89	53	
60	47	
62	42	
74	51	
60	54	
51	57	
86	56	
72	49	
75	50	
75	53	
76	46	
70	60	
81	52	
84	77	
70	60	
75	59	
50	53	
64	37	
77	62	
61	78	
80	52	
69	72	
70	65	
82	74	
87	63	
66	58	
72	59	
70	67	
73	57	
80	48	
83	49	
70	77	
77	68	
67	67	
79	51	
76	64	
85	70	
66	61	
75	57	
58	59	
59	48	
74	64	
87	63	
69	51	
51	60	
73	72	
77	51	
79	56	
68	58	
68	61	
66	53	
68	46	
87	59	
61	52	
77	50	
69	53	
52	53	
69	42	
67	43	
80	78	
72	44	
74	60	
61	54	
65	48	
61	61	
62	59	
51	57	
62	51	
63	44	
71	53	
68	39	
66	46	
70	44	
85	45	
60	64	
72	58	
70	55	
68	70	
58	53	
66	55	
72	52	
71	67	
76	54	
68	57	
85	79	
60	43	
77	54	
79	67	
76	60	
85	55	
69	69	
75	65	
80	66	
79	58	
67	58	
96	56	
67	56	
74	66	
90	77	
79	76	
71	65	
60	64	
73	74	
74	76	
85	56	
70	71	
85	53	
87	53	
82	62	
91	66	
83	61	
70	52	
80	67	
73	50	
83	62	
66	49	
92	67	
72	69	
70	59	
70	62	
74	67	
77	61	
63	63	
77	58	
71	42	
74	54	
64	61	
73	54	
72	55	
75	59	
71	50	
70	50	
74	72	
56	55	
65	74	
61	49	
62	42	
71	60	
64	54	
70	56	
72	57	
68	54	
77	57	
77	45	
70	60	
79	35	
75	57	
74	64	
58	57	
69	60	
77	56	
76	63	
68	49	
54	51	
81	48	
74	55	
67	58	
83	55	
94	58	
66	53	
55	50	
75	53	
72	57	
77	59	
86	60	
81	71	
75	53	
83	63	
94	56	
68	60	
80	62	
88	58	
82	48	
76	61	
77	66	
68	37	
79	67	
89	47	
88	66	
82	76	
83	69	
82	55	
92	53	
76	50	
80	57	
103	75	
70	65	
77	51	
58	54	
63	71	
96	57	
58	57	
77	52	
65	65	
65	63	
83	63	
63	58	
60	49	
70	58	
64	62	
74	45	
74	50	
75	53	
81	52	
67	53	
74	55	
72	50	
77	51	
71	66	
79	58	
69	49	
56	39	
63	55	
56	52	
59	43	
65	52	
60	47	
65	54	
76	57	
54	57	
57	64	
57	59	
74	68	
85	62	
77	68	
70	48	
79	63	
66	51	
70	68	
84	54	
72	50	
70	69	
66	50	
67	58	
82	57	
78	71	
78	58	
67	56	
74	62	
80	61	
81	63	
78	43	
57	64	
73	64	
82	76	
77	55	
75	60	
69	64	
88	54	
71	58	
78	66	
74	59	
73	55	
69	70	
81	78	
89	61	
86	53	
73	67	
72	71	
73	68	
87	55	
86	54	
65	72	
86	74	
88	63	
66	58	
79	67	
76	69	
68	60	
70	54	
91	73	
77	64	
66	70	
70	64	
73	56	
74	73	
87	61	
74	64	
61	64	
80	58	
68	64	
83	59	
74	75	
60	46	
81	47	
76	57	
64	52	
79	53	
73	53	
78	50	
67	52	
76	51	
67	65	
67	52	
75	63	
60	41	
64	61	
65	64	
61	53	
70	51	
75	53	
78	61	
83	53	
73	68	
68	63	
81	61	
73	49	
70	72	
82	60	
75	51	
74	57	
78	69	
80	52	
75	60	
66	63	
78	56	
86	63	
70	62	
78	63	
81	54	
74	60	
84	58	
74	71	
86	46	
100	62	
85	65	
83	65	
79	68	
88	54	
72	64	
67	72	
90	62	
78	68	
80	78	
96	52	
109	57	
78	62	
87	64	
85	59	
90	69	
80	84	
69	60	
86	69	
79	72	
77	46	
75	52	
89	68	
95	70	
61	67	
76	68	
71	63	
82	51	
67	63	
61	63	
85	57	
78	56	
72	67	
72	59	
66	52	
81	63	
65	65	
76	76	
74	58	
67	49	
71	66	
76	51	
71	50	
78	60	
77	54	
66	67	
66	51	
79	59	
89	73	
74	57	
72	63	
71	56	
70	69	
76	66	
78	59	
71	59	
84	51	
91	63	
67	52	
90	62	
86	81	
76	67	
70	56	
87	56	
72	73	
76	58	
83	59	
83	84	
81	59	
70	68	
90	63	
86	77	
79	66	
85	81	
83	95	
95	85	
80	72	
88	78	
85	76	
79	80	
76	74	
89	81	
81	63	
103	67	
102	96	
109	84	
112	65	
71	62	
76	61	
85	71	
89	91	
101	62	
100	71	
86	77	
80	66	
77	62	
84	57	
81	85	
71	56	
82	67	
82	56	
75	66	
87	58	
68	67	
89	65	
86	59	
94	59	
66	66	
87	71	
73	65	
75	55	
82	62	
74	75	
83	49	
91	71	
69	62	
76	53	
75	45	
74	59	
71	66	
86	58	
63	43	
88	45	
81	53	
92	59	
75	56	
72	61	
67	61	
68	49	
79	52	
69	56	
69	64	
82	69	
74	54	
57	51	
72	70	
71	56	
76	50	
63	46	
73	53	
86	50	
84	42	
80	44	
76	61	
81	54	
74	65	
73	62	
81	62	
98	53	
81	63	
83	58	
73	68	
79	48	
69	67	
64	59	
87	59	
85	59	
78	59	
93	71	
79	71	
80	56	
79	60	
75	51	
82	60	
88	60	
90	56	
80	65	
75	75	
79	57	
90	65	
72	58	
86	68	
63	65	
80	69	
76	48	
81	56	
81	64	
70	55	
70	51	
72	43	
105	56	
72	46	
89	42	
74	59	
50	45	
58	42	
76	58	
69	43	
85	48	
83	58	
64	47	
58	55	
88	62	
72	51	
70	52	
71	43	
73	56	
69	47	
87	71	
64	38	
72	61	
79	59	
65	52	
73	49	
58	44	
74	53	
74	45	
88	44	
79	73	
72	60	
73	40	
66	59	
67	52	
71	63	
77	64	
77	50	
88	51	
83	53	
79	44	
70	64	
96	69	
93	71	
53	66	
107	43	
79	61	
79	54	
93	56	
94	67	
64	64	
89	62	
79	65	
68	51	
78	59	
81	53	
81	66	
74	45	
93	61	
86	52	
97	65	
90	60	
91	59	
82	69	
82	54	
72	50	
79	58	
79	56	
91	66	
87	47	
88	47	
72	59	
71	55	
77	54	
77	53	
65	70	
78	66	
75	51	
78	59	
58	59	
66	35	
73	59	
59	44	
84	55	
58	53	
74	71	
73	64	
72	63	
75	59	
74	50	
67	59	
86	58	
69	63	
91	55	
65	54	
83	50	
98	53	
80	42	
81	57	
83	54	
72	71	
79	52	
85	59	
79	61	
88	55	
86	77	
85	51	
91	59	
70	60	
84	73	
79	64	
90	54	
69	66	
88	51	
89	65	
88	61	
85	55	
94	70	
81	57	
71	66	
77	73	
77	48	
73	56	
80	55	
69	50	
75	62	
87	52	
71	52	
84	58	
91	56	
61	50	
76	60	
76	60	
79	72	
68	78	
82	61	
84	65	
77	62	
82	67	
80	62	
71	65	
72	52	
75	58	
75	65	
82	45	
78	58	
74	49	
75	43	
81	54	
78	43	
73	51	
82	60	
90	74	
81	53	
74	62	
86	55	
68	57	
77	54	
84	61	
76	58	
71	54	
78	61	
85	51	
63	50	
81	47	
82	61	
84	66	
80	61	
95	62	
76	55	
67	61	
84	74	
80	54	
75	64	
84	63	
78	66	
76	52	
83	57	
77	50	
84	60	
100	64	
99	70	
76	66	
100	61	
83	67	
86	67	
78	70	
97	55	
105	58	
88	69	
89	65	
98	66	
98	58	
83	62	
92	55	
74	67	
95	72	
94	62	
86	61	
87	61	
75	60	
77	71	
85	57	
64	55	
83	52	
84	50	
80	64	
72	59	
88	58	
67	59	
81	60	
72	71	
97	56	
74	60	
80	56	
67	54	
77	39	
63	50	
63	56	
74	51	
82	55	
82	55	
79	57	
86	58	
82	47	
92	49	
88	61	
102	65	
82	54	
79	61	
92	74	
84	62	
76	50	
80	45	
87	64	
89	71	
84	52	
78	60	
74	58	
85	46	
76	72	
74	48	
67	58	
85	67	
95	61	
98	49	
89	87	
91	71	
96	59	
85	72	
113	61	
101	73	
90	77	
82	81	
90	62	
95	69	
105	69	
80	56	
93	72	
74	73	
88	83	
84	78	
94	72	
83	63	
105	62	
80	50	
91	52	
81	50	
90	75	
89	64	
105	72	
96	69	
85	51	
92	66	
85	72	
89	54	
93	59	
93	55	
75	50	
75	58	
85	61	
71	55	
89	55	
81	50	
71	59	
71	52	
67	56	
73	55	
80	58	
87	47	
75	55	
77	48	
72	44	
83	60	
74	57	
68	51	
85	68	
101	58	
69	70	
88	70	
88	60	
92	71	
78	79	
95	57	
88	70	
85	78	
91	76	
86	73	
103	78	
94	70	
77	57	
112	76	
95	75	
92	78	
112	75	
129	73	
109	69	
95	80	
110	77	
102	84	
108	74	
88	85	
91	75	
115	75	
104	90	
114	83	
115	80	
99	82	
93	77	
97	85	
113	84	
89	67	
91	69	
77	76	
80	86	
83	68	
88	65	
93	66	
81	62	
97	78	
99	64	
86	76	
77	59	
77	65	
81	68	
87	80	
77	59	
90	58	
73	69	
87	67	
76	73	
73	60	
77	61	
88	47	
72	64	
68	57	
79	63	
82	48	
78	52	
62	71	
74	74	
81	69	
73	58	
75	57	
83	53	
95	65	
83	54	
87	46	
71	59	
86	55	
73	74	
109	58	
79	67	
67	69	
80	53	
79	68	
86	52	
93	61	
101	65	
80	79	
95	60	
91	68	
103	63	
108	58	
81	74	
91	63	
90	64	
105	67	
99	56	
84	85	
88	66	
107	75	
101	78	
104	69	
82	86	
82	53	
86	63	
92	63	
95	61	
89	53	
90	63	
87	56	
97	61	
87	58	
91	65	
98	54	
81	55	
98	62	
88	57	
81	47	
73	74	
76	42	
83	44	
79	52	
71	51	
74	62	
79	44	
77	57	
85	59	
73	48	
78	42	
82	45	
80	47	
76	52	
69	43	
72	59	
76	44	
85	48	
78	43	
84	59	
81	47	
84	60	
82	63	
81	44	
91	50	
97	59	
91	47	
80	57	
84	63	
71	56	
82	46	
79	51	
65	48	
96	64	
85	49	
78	51	
81	57	
80	55	
86	55	
87	56	
96	54	
88	50	
77	56	
87	56	
81	70	
90	63	
76	65	
110	55	
101	77	
98	72	
104	61	
97	53	
82	63	
112	64	
110	68	
103	62	
119	59	
107	67	
112	72	
97	71	
119	62	
111	64	
84	58	
110	75	
99	67	
103	52	
108	69	
101	57	
96	66	
106	55	
73	64	
104	39	
92	65	
97	49	
89	49	
78	45	
102	53	
87	51	
75	44	
70	42	
66	45	
61	38	
68	42	
59	38	
79	34	
79	55	
67	52	
72	45	
79	51	
65	44	
73	42	
87	48	
69	57	
71	57	
81	62	
80	56	
88	52	
96	59	
82	63	
71	47	
94	63	
92	50	
92	47	
84	59	
75	59	
104	52	
85	63	
76	56	
103	45	
89	68	
87	51	
79	53	
80	57	
85	56	
88	43	
78	69	
110	52	
83	55	
104	62	
105	54	
108	57	
92	61	
97	57	
88	57	
77	53	
81	50	
97	59	
96	51	
83	64	
86	84	
93	54	
81	50	
82	55	
112	69	
82	56	
94	56	
84	44	
98	58	
100	56	
97	46	
84	58	
81	56	
96	61	
88	57	
79	53	
87	54	
97	55	
86	60	
82	54	
72	75	
87	55	
84	65	
83	51	
79	49	
95	62	
79	66	
82	60	
79	38	
80	42	
87	57	
93	48	
77	38	
73	41	
83	55	
87	56	
66	57	
83	49	
103	44	
77	36	
95	53	
70	55	
70	48	
84	59	
110	70	
84	56	
90	48	
86	49	
101	64	
110	67	
92	56	
95	62	
99	52	
109	56	
89	50	
82	53	
96	67	
114	54	
116	69	
115	62	
96	82	
129	72	
100	84	
103	64	
119	68	
90	54	
105	61	
89	69	
87	60	
93	57	
115	65	
92	48	
89	56	
107	43	
69	62	
89	47	
96	49	
84	46	
93	48	
78	49	
91	55	
92	46	
78	55	
86	45	
81	60	
84	58	
82	58	
82	51	
89	48	
86	58	
83	58	
77	56	
87	40	
83	53	
86	47	
82	47	
78	45	
75	43	
105	64	
65	49	
95	60	
104	46	
87	37	
87	55	
106	59	
97	49	
104	66	
89	76	
99	64	
96	67	
100	53	
110	47	
102	51	
100	50	
114	46	
98	59	
109	52	
94	54	
100	60	
